Energy,ElecStopPower,NucStopPower,TotalStopPower
1.00E-03,9.89E+01,2.28E+02,3.27E+02
1.50E-03,1.23E+02,2.08E+02,3.31E+02
2.00E-03,1.43E+02,1.91E+02,3.34E+02
2.50E-03,1.61E+02,1.78E+02,3.39E+02
3.00E-03,1.78E+02,1.66E+02,3.44E+02
4.00E-03,2.07E+02,1.48E+02,3.55E+02
5.00E-03,2.33E+02,1.34E+02,3.67E+02
6.00E-03,2.57E+02,1.23E+02,3.79E+02
7.00E-03,2.79E+02,1.13E+02,3.92E+02
8.00E-03,2.99E+02,1.06E+02,4.05E+02
9.00E-03,3.19E+02,9.91E+01,4.18E+02
1.00E-02,3.37E+02,9.34E+01,4.30E+02
1.25E-02,3.80E+02,8.21E+01,4.62E+02
1.50E-02,4.18E+02,7.35E+01,4.92E+02
1.75E-02,4.54E+02,6.67E+01,5.21E+02
2.00E-02,4.87E+02,6.12E+01,5.48E+02
2.25E-02,5.19E+02,5.67E+01,5.75E+02
2.50E-02,5.48E+02,5.28E+01,6.01E+02
2.75E-02,5.77E+02,4.95E+01,6.26E+02
3.00E-02,6.04E+02,4.67E+01,6.51E+02
3.50E-02,6.55E+02,4.19E+01,6.97E+02
4.00E-02,7.03E+02,3.81E+01,7.41E+02
4.50E-02,7.48E+02,3.50E+01,7.83E+02
5.00E-02,7.91E+02,3.24E+01,8.23E+02
5.50E-02,8.31E+02,3.02E+01,8.61E+02
6.00E-02,8.70E+02,2.83E+01,8.98E+02
6.50E-02,9.07E+02,2.67E+01,9.33E+02
7.00E-02,9.42E+02,2.52E+01,9.67E+02
7.50E-02,9.76E+02,2.40E+01,1.00E+03
8.00E-02,1.01E+03,2.28E+01,1.03E+03
8.50E-02,1.04E+03,2.18E+01,1.06E+03
9.00E-02,1.07E+03,2.08E+01,1.09E+03
9.50E-02,1.10E+03,2.00E+01,1.12E+03
1.00E-01,1.13E+03,1.92E+01,1.15E+03
1.25E-01,1.27E+03,1.61E+01,1.28E+03
1.50E-01,1.38E+03,1.40E+01,1.40E+03
1.75E-01,1.49E+03,1.24E+01,1.50E+03
2.00E-01,1.58E+03,1.11E+01,1.59E+03
2.25E-01,1.67E+03,1.01E+01,1.68E+03
2.50E-01,1.74E+03,9.25E+00,1.75E+03
2.75E-01,1.81E+03,8.56E+00,1.82E+03
3.00E-01,1.87E+03,7.97E+00,1.88E+03
3.50E-01,1.98E+03,7.02E+00,1.99E+03
4.00E-01,2.06E+03,6.28E+00,2.07E+03
4.50E-01,2.13E+03,5.69E+00,2.13E+03
5.00E-01,2.18E+03,5.21E+00,2.18E+03
5.50E-01,2.22E+03,4.81E+00,2.22E+03
6.00E-01,2.24E+03,4.47E+00,2.25E+03
6.50E-01,2.26E+03,4.18E+00,2.26E+03
7.00E-01,2.26E+03,3.93E+00,2.27E+03
7.50E-01,2.26E+03,3.70E+00,2.27E+03
8.00E-01,2.26E+03,3.51E+00,2.26E+03
8.50E-01,2.25E+03,3.33E+00,2.25E+03
9.00E-01,2.23E+03,3.17E+00,2.23E+03
9.50E-01,2.21E+03,3.03E+00,2.22E+03
1.00E+00,2.19E+03,2.90E+00,2.19E+03
1.25E+00,2.05E+03,2.39E+00,2.05E+03
1.50E+00,1.90E+03,2.05E+00,1.90E+03
1.75E+00,1.75E+03,1.79E+00,1.75E+03
2.00E+00,1.62E+03,1.59E+00,1.63E+03
2.25E+00,1.51E+03,1.44E+00,1.51E+03
2.50E+00,1.41E+03,1.31E+00,1.42E+03
2.75E+00,1.33E+03,1.21E+00,1.33E+03
3.00E+00,1.26E+03,1.12E+00,1.26E+03
3.50E+00,1.13E+03,9.77E-01,1.13E+03
4.00E+00,1.03E+03,8.69E-01,1.04E+03
4.50E+00,9.53E+02,7.83E-01,9.54E+02
5.00E+00,8.85E+02,7.13E-01,8.86E+02
5.50E+00,8.27E+02,6.55E-01,8.28E+02
6.00E+00,7.77E+02,6.07E-01,7.78E+02
6.50E+00,7.33E+02,5.65E-01,7.34E+02
7.00E+00,6.95E+02,5.29E-01,6.95E+02
7.50E+00,6.61E+02,4.97E-01,6.61E+02
8.00E+00,6.30E+02,4.69E-01,6.31E+02
8.50E+00,6.03E+02,4.45E-01,6.03E+02
9.00E+00,5.78E+02,4.23E-01,5.78E+02
9.50E+00,5.55E+02,4.03E-01,5.55E+02
1.00E+01,5.34E+02,3.84E-01,5.34E+02
1.25E+01,4.51E+02,3.15E-01,4.52E+02
1.50E+01,3.93E+02,2.67E-01,3.93E+02
1.75E+01,3.49E+02,2.32E-01,3.49E+02
2.00E+01,3.14E+02,2.05E-01,3.15E+02
2.50E+01,2.64E+02,1.68E-01,2.64E+02
2.75E+01,2.45E+02,1.54E-01,2.45E+02
3.00E+01,2.28E+02,1.42E-01,2.29E+02
3.50E+01,2.02E+02,1.23E-01,2.02E+02
4.00E+01,1.82E+02,1.09E-01,1.82E+02
4.50E+01,1.65E+02,9.74E-02,1.65E+02
5.00E+01,1.52E+02,8.83E-02,1.52E+02
5.50E+01,1.40E+02,8.08E-02,1.41E+02
6.00E+01,1.31E+02,7.45E-02,1.31E+02
6.50E+01,1.23E+02,6.91E-02,1.23E+02
7.00E+01,1.16E+02,6.44E-02,1.16E+02
7.50E+01,1.09E+02,6.04E-02,1.09E+02
8.00E+01,1.04E+02,5.68E-02,1.04E+02
8.50E+01,9.86E+01,5.36E-02,9.87E+01
9.00E+01,9.42E+01,5.08E-02,9.42E+01
9.50E+01,9.01E+01,4.83E-02,9.02E+01
1.00E+02,8.65E+01,4.60E-02,8.65E+01
1.25E+02,7.22E+01,3.72E-02,7.22E+01
1.50E+02,6.23E+01,3.12E-02,6.23E+01
1.75E+02,5.51E+01,2.69E-02,5.51E+01
2.00E+02,4.95E+01,2.36E-02,4.95E+01
2.25E+02,4.51E+01,2.11E-02,4.51E+01
2.50E+02,4.15E+01,1.90E-02,4.15E+01
2.75E+02,3.86E+01,1.73E-02,3.86E+01
3.00E+02,3.60E+01,1.59E-02,3.61E+01
3.50E+02,3.21E+01,1.37E-02,3.21E+01
4.00E+02,2.90E+01,1.20E-02,2.90E+01
4.50E+02,2.66E+01,1.07E-02,2.66E+01
5.00E+02,2.46E+01,9.64E-03,2.47E+01
5.50E+02,2.30E+01,8.77E-03,2.30E+01
6.00E+02,2.17E+01,8.05E-03,2.17E+01
6.50E+02,2.05E+01,7.44E-03,2.05E+01
7.00E+02,1.95E+01,6.91E-03,1.95E+01
7.50E+02,1.87E+01,6.46E-03,1.87E+01
8.00E+02,1.79E+01,6.05E-03,1.79E+01
8.50E+02,1.72E+01,5.70E-03,1.72E+01
9.00E+02,1.66E+01,5.38E-03,1.66E+01
9.50E+02,1.61E+01,5.10E-03,1.61E+01
1.00E+03,1.56E+01,4.85E-03,1.56E+01